PZT on Pt electrode (Lead zirconate titanate on Platinum electrode) - Sintef
lambda(nm), real index, imaginary index
371.036224	2.936359	0.019642	
372.621124	2.927562	0.018639	
374.206116	2.919027	0.017688	
375.791229	2.910739	0.016786	
377.376434	2.902689	0.015931	
378.961761	2.894867	0.015121	
380.547180	2.887264	0.014352	
382.132690	2.879869	0.013623	
383.718292	2.872674	0.012932	
385.304016	2.865673	0.012277	
386.889832	2.858856	0.011657	
388.475708	2.852217	0.011068	
390.061707	2.845749	0.010510	
391.647827	2.839446	0.009981	
393.234009	2.833302	0.009479	
394.820282	2.827310	0.009004	
396.406677	2.821466	0.008553	
397.993134	2.815763	0.008126	
399.579681	2.810198	0.007721	
401.166321	2.804765	0.007337	
402.753082	2.799459	0.006972	
404.339905	2.794278	0.006627	
405.926819	2.789215	0.006299	
407.513824	2.784267	0.005988	
409.100891	2.779432	0.005694	
410.688080	2.774704	0.005414	
412.275330	2.770080	0.005149	
413.862640	2.765558	0.004897	
415.450104	2.761133	0.004659	
417.037598	2.756804	0.004432	
418.625153	2.752566	0.004217	
420.212830	2.748417	0.004013	
421.800598	2.744355	0.003820	
423.388367	2.740377	0.003636	
424.976257	2.736480	0.003461	
426.564270	2.732662	0.003296	
428.152283	2.728920	0.003139	
429.740417	2.725253	0.002989	
431.328613	2.721658	0.002847	
432.916901	2.718134	0.002713	
434.505219	2.714677	0.002585	
436.093658	2.711287	0.002463	
437.682129	2.707962	0.002348	
439.270660	2.704699	0.002238	
440.859283	2.701497	0.002134	
442.447998	2.698354	0.002034	
444.036713	2.695269	0.001940	
445.625549	2.692240	0.001851	
447.214447	2.689266	0.001765	
448.803406	2.686345	0.001684	
450.392426	2.683476	0.001607	
451.981506	2.680658	0.001534	
453.570618	2.677889	0.001464	
455.159821	2.675168	0.001398	
456.749084	2.672494	0.001335	
458.338440	2.669865	0.001275	
459.927795	2.667281	0.001217	
461.517242	2.664740	0.001163	
463.106689	2.662242	0.001111	
464.696228	2.659785	0.001062	
466.285828	2.657368	0.001015	
467.875549	2.654990	0.000970	
469.465240	2.652651	0.000927	
471.054993	2.650350	0.000887	
472.644836	2.648085	0.000848	
474.234680	2.645856	0.000811	
475.824615	2.643661	0.000776	
477.414551	2.641501	0.000742	
479.004578	2.639375	0.000710	
480.594635	2.637281	0.000680	
482.184723	2.635218	0.000651	
483.774902	2.633188	0.000623	
485.365082	2.631187	0.000596	
486.955322	2.629216	0.000571	
488.545593	2.627275	0.000547	
490.135925	2.625362	0.000524	
491.726318	2.623477	0.000502	
493.316742	2.621619	0.000481	
494.907166	2.619788	0.000461	
496.497650	2.617983	0.000442	
498.088196	2.616204	0.000424	
499.678772	2.614450	0.000406	
501.269348	2.612721	0.000389	
502.860016	2.611016	0.000373	
504.450684	2.609334	0.000358	
506.041351	2.607675	0.000344	
507.632141	2.606039	0.000330	
509.222900	2.604426	0.000316	
510.813660	2.602834	0.000304	
512.404480	2.601263	0.000292	
513.995361	2.599713	0.000280	
515.586304	2.598184	0.000269	
517.177185	2.596675	0.000258	
518.768127	2.595186	0.000248	
520.359070	2.593715	0.000238	
521.950073	2.592264	0.000229	
523.541138	2.590832	0.000220	
525.132202	2.589418	0.000211	
526.723267	2.588022	0.000203	
528.314331	2.586643	0.000195	
529.905396	2.585282	0.000188	
531.496582	2.583937	0.000181	
533.087769	2.582610	0.000174	
534.678894	2.581298	0.000167	
536.270081	2.580003	0.000161	
537.861267	2.578723	0.000155	
539.452515	2.577459	0.000149	
541.043762	2.576210	0.000143	
542.635010	2.574976	0.000138	
544.226257	2.573757	0.000133	
545.817505	2.572552	0.000128	
547.408813	2.571362	0.000123	
549.000122	2.570185	0.000119	
550.591431	2.569022	0.000114	
552.182739	2.567873	0.000110	
553.774109	2.566736	0.000106	
555.365417	2.565613	0.000102	
556.956787	2.564503	0.000098	
558.548157	2.563405	0.000095	
560.139526	2.562319	0.000092	
561.730835	2.561246	0.000088	
563.322205	2.560185	0.000085	
564.913574	2.559135	0.000082	
566.505005	2.558097	0.000079	
568.096313	2.557070	0.000076	
569.687683	2.556055	0.000074	
571.279053	2.555051	0.000071	
572.870483	2.554057	0.000069	
574.461792	2.553075	0.000066	
576.053162	2.552102	0.000064	
577.644531	2.551141	0.000062	
579.235901	2.550189	0.000060	
580.827271	2.549247	0.000058	
582.418579	2.548316	0.000056	
584.009888	2.547394	0.000054	
585.601257	2.546481	0.000052	
587.192566	2.545578	0.000050	
588.783875	2.544684	0.000048	
590.375183	2.543800	0.000047	
591.966431	2.542924	0.000045	
593.557739	2.542058	0.000044	
595.148987	2.541200	0.000042	
596.740234	2.540351	0.000041	
598.331482	2.539510	0.000040	
599.922729	2.538678	0.000038	
601.513916	2.537853	0.000037	
603.105103	2.537038	0.000036	
604.696228	2.536230	0.000035	
606.287415	2.535429	0.000034	
607.878540	2.534637	0.000032	
609.469604	2.533853	0.000031	
611.060669	2.533076	0.000030	
612.651733	2.532306	0.000029	
614.242798	2.531544	0.000028	
615.833862	2.530789	0.000028	
617.424805	2.530041	0.000027	
619.015747	2.529301	0.000026	
620.606689	2.528567	0.000025	
622.197632	2.527840	0.000024	
623.788513	2.527120	0.000024	
625.379333	2.526406	0.000023	
626.970154	2.525699	0.000022	
628.560974	2.524999	0.000021	
630.151733	2.524305	0.000021	
631.742493	2.523618	0.000020	
633.333130	2.522936	0.000020	
634.923828	2.522261	0.000019	
636.514465	2.521592	0.000018	
638.105042	2.520929	0.000018	
639.695618	2.520271	0.000017	
641.286133	2.519620	0.000017	
642.876587	2.518974	0.000016	
644.467041	2.518334	0.000016	
646.057434	2.517700	0.000015	
647.647827	2.517071	0.000015	
649.238159	2.516448	0.000014	
650.828369	2.515830	0.000014	
652.418579	2.515217	0.000014	
654.008789	2.514610	0.000013	
655.598999	2.514008	0.000013	
657.189087	2.513411	0.000012	
658.779114	2.512819	0.000012	
660.369080	2.512232	0.000012	
661.959106	2.511650	0.000011	
663.548950	2.511073	0.000011	
665.138794	2.510500	0.000011	
666.728638	2.509933	0.000010	
668.318420	2.509370	0.000010	
669.908081	2.508812	0.000010	
671.497742	2.508258	0.000010	
673.087341	2.507709	0.000009	
674.676880	2.507165	0.000009	
676.266418	2.506624	0.000009	
677.855835	2.506089	0.000009	
679.445190	2.505557	0.000008	
681.034546	2.505030	0.000008	
682.623779	2.504507	0.000008	
684.212952	2.503988	0.000008	
685.802124	2.503474	0.000007	
687.391174	2.502963	0.000007	
688.980164	2.502456	0.000007	
690.569153	2.501954	0.000007	
692.158020	2.501455	0.000007	
693.746826	2.500960	0.000007	
695.335571	2.500469	0.000006	
696.924255	2.499982	0.000006	
698.512878	2.499499	0.000006	
700.101440	2.499019	0.000006	
701.689941	2.498543	0.000006	
703.278381	2.498070	0.000006	
704.866699	2.497602	0.000005	
706.454956	2.497136	0.000005	
708.043152	2.496675	0.000005	
709.631287	2.496216	0.000005	
711.219360	2.495761	0.000005	
712.807312	2.495310	0.000005	
714.395264	2.494862	0.000005	
715.983032	2.494417	0.000005	
717.570801	2.493975	0.000004	
719.158508	2.493537	0.000004	
720.746094	2.493102	0.000004	
722.333618	2.492670	0.000004	
723.921021	2.492241	0.000004	
725.508423	2.491815	0.000004	
727.095642	2.491392	0.000004	
728.682861	2.490973	0.000004	
730.269958	2.490556	0.000004	
731.856995	2.490142	0.000004	
733.443909	2.489732	0.000003	
735.030762	2.489324	0.000003	
736.617554	2.488919	0.000003	
738.204224	2.488517	0.000003	
739.790771	2.488117	0.000003	
741.377319	2.487721	0.000003	
742.963684	2.487327	0.000003	
744.549988	2.486936	0.000003	
746.136230	2.486548	0.000003	
747.722351	2.486162	0.000003	
749.308411	2.485779	0.000003	
750.894348	2.485399	0.000003	
752.480164	2.485021	0.000003	
754.065918	2.484645	0.000003	
755.651611	2.484273	0.000002	
757.237183	2.483902	0.000002	
758.822632	2.483535	0.000002	
760.407959	2.483169	0.000002	
761.993225	2.482806	0.000002	
763.578369	2.482446	0.000002	
765.163452	2.482088	0.000002	
766.748413	2.481732	0.000002	
768.333252	2.481379	0.000002	
769.918030	2.481028	0.000002	
771.502625	2.480679	0.000002	
773.087158	2.480332	0.000002	
774.671570	2.479988	0.000002	
776.255920	2.479646	0.000002	
777.840149	2.479306	0.000002	
779.424255	2.478969	0.000002	
781.008240	2.478633	0.000002	
782.592163	2.478300	0.000002	
784.175903	2.477968	0.000002	
785.759583	2.477639	0.000002	
787.343140	2.477312	0.000002	
788.926514	2.476987	0.000002	
790.509888	2.476664	0.000001	
792.093079	2.476343	0.000001	
793.676147	2.476024	0.000001	
795.259094	2.475707	0.000001	
796.841919	2.475392	0.000001	
798.424683	2.475079	0.000001	
800.007263	2.474767	0.000001	
801.589783	2.474458	0.000001	
803.172180	2.474150	0.000001	
804.754395	2.473845	0.000001	
806.336548	2.473541	0.000001	
807.918518	2.473239	0.000001	
809.500366	2.472939	0.000001	
811.082153	2.472641	0.000001	
812.663757	2.472344	0.000001	
814.245239	2.472049	0.000001	
815.826660	2.471756	0.000001	
817.407898	2.471465	0.000001	
818.989014	2.471175	0.000001	
820.570007	2.470887	0.000001	
822.150757	2.470601	0.000001	
823.731567	2.470317	0.000001	
825.312134	2.470034	0.000001	
826.892578	2.469753	0.000001	
828.472839	2.469473	0.000001	
830.053040	2.469195	0.000001	
831.633118	2.468918	0.000001	
833.213013	2.468643	0.000001	
834.792786	2.468370	0.000001	
836.372437	2.468098	0.000001	
837.951965	2.467828	0.000001	
839.531250	2.467559	0.000001	
841.110474	2.467292	0.000001	
842.689575	2.467026	0.000001	
844.268433	2.466762	0.000001	
845.847290	2.466499	0.000001	
847.425903	2.466238	0.000001	
849.004395	2.465978	0.000001	
850.582703	2.465719	0.000001	
852.160950	2.465462	0.000001	
853.738953	2.465207	0.000001	
855.316895	2.464952	0.000001	
856.894653	2.464700	0.000001	
858.472290	2.464448	0.000001	
860.049683	2.464198	0.000001	
861.627075	2.463949	0.000001	
863.204224	2.463702	0.000001	
864.781128	2.463455	0.000001	
866.358032	2.463211	0.000001	
867.934753	2.462967	0.000001	
869.511230	2.462725	0.000001	
871.087708	2.462484	0.000001	
872.663879	2.462244	0.000001	
874.239929	2.462005	0.000001	
875.815796	2.461768	0.000001	
877.391602	2.461532	0.000000	
878.967163	2.461297	0.000000	
880.542603	2.461064	0.000000	
882.117859	2.460831	0.000000	
883.692993	2.460600	0.000000	
885.267883	2.460370	0.000000	
886.842651	2.460141	0.000000	
888.417297	2.459913	0.000000	
889.991699	2.459687	0.000000	
891.566040	2.459461	0.000000	
893.140015	2.459237	0.000000	
894.714050	2.459014	0.000000	
896.287781	2.458792	0.000000	
897.861450	2.458571	0.000000	
899.434753	2.458351	0.000000	
901.008118	2.458132	0.000000	
902.581177	2.457915	0.000000	
904.154114	2.457698	0.000000	
905.726746	2.457482	0.000000	
907.299316	2.457268	0.000000	
908.871765	2.457054	0.000000	
910.443970	2.456842	0.000000	
912.015991	2.456630	0.000000	
913.587769	2.456420	0.000000	
915.159485	2.456210	0.000000	
916.730957	2.456002	0.000000	
918.302368	2.455795	0.000000	
919.873413	2.455588	0.000000	
921.444336	2.455383	0.000000	
923.015137	2.455178	0.000000	
924.585754	2.454975	0.000000	
926.156128	2.454772	0.000000	
927.726379	2.454570	0.000000	
929.296387	2.454370	0.000000	
930.866211	2.454170	0.000000	
932.435852	2.453971	0.000000	
934.005249	2.453773	0.000000	
935.574585	2.453576	0.000000	
937.143677	2.453380	0.000000	
938.712585	2.453184	0.000000	
940.281250	2.452990	0.000000	
941.849792	2.452796	0.000000	
943.418091	2.452604	0.000000	
944.986206	2.452412	0.000000	
946.554077	2.452221	0.000000	
948.121887	2.452031	0.000000	
949.689331	2.451842	0.000000	
951.256714	2.451653	0.000000	
952.823853	2.451466	0.000000	
954.390808	2.451279	0.000000	
955.957520	2.451093	0.000000	
957.524048	2.450908	0.000000	
959.090332	2.450724	0.000000	
960.656555	2.450540	0.000000	
962.222473	2.450357	0.000000	
963.788208	2.450176	0.000000	
965.353699	2.449994	0.000000	
966.919067	2.449814	0.000000	
968.484070	2.449634	0.000000	
970.049011	2.449455	0.000000	
971.613647	2.449277	0.000000	
973.178223	2.449100	0.000000	
974.742493	2.448923	0.000000	
976.306519	2.448747	0.000000	
977.870422	2.448572	0.000000	
979.433960	2.448398	0.000000	
980.997437	2.448224	0.000000	
982.560669	2.448051	0.000000	
984.123657	2.447879	0.000000	
985.686401	2.447708	0.000000	
987.249023	2.447537	0.000000	
988.811340	2.447366	0.000000	
990.373535	2.447197	0.000000	
991.935425	2.447028	0.000000	
993.497070	2.446860	0.000000	
995.058594	2.446693	0.000000	
996.619812	2.446526	0.000000	
998.180847	2.446360	0.000000	
999.741699	2.446195	0.000000	