PZT
lambda(nm),  e_real,      e_imaginary
371.0362	8.6218169	0.11535051
372.6211	8.5702752	0.10913394
374.2061	8.5204030	0.10326410
375.7912	8.4721205	0.097721419
377.3764	8.4253529	0.092487334
378.9618	8.3800292	0.087544260
380.5472	8.3360853	0.082875827
382.1327	8.2934582	0.078466306
383.7183	8.2520915	0.074301136
385.3040	8.2119296	0.070366326
386.8898	8.1729219	0.066648869
388.4757	8.1350208	0.063136492
390.0617	8.0981796	0.059817468
391.6478	8.0623560	0.056680894
393.2340	8.0275098	0.053716487
394.8203	7.9936019	0.050914461
396.4067	7.9605959	0.048265638
397.9931	7.9284571	0.045761368
399.5797	7.8971531	0.043393530
401.1663	7.8666524	0.041154400
402.7531	7.8369252	0.039036732
404.3399	7.8079436	0.037033729
405.9268	7.7796804	0.035138919
407.5138	7.7521099	0.033346237
409.1009	7.7252081	0.031649989
410.6881	7.6989513	0.030044756
412.2753	7.6733177	0.028525480
413.8627	7.6482862	0.027087388
415.4501	7.6238352	0.025725877
417.0376	7.5999466	0.024436773
418.6252	7.5766019	0.023216056
420.2128	7.5537818	0.022059868
421.8006	7.5314707	0.020964711
423.3884	7.5096522	0.019927216
424.9763	7.4883101	0.018944176
426.5643	7.4674292	0.018012598
428.1523	7.4469959	0.017129688
429.7404	7.4269957	0.016292754
431.3286	7.4074159	0.015499309
432.9169	7.3882432	0.014746958
434.5052	7.3694659	0.014033488
436.0936	7.3510717	0.013356767
437.6821	7.3330498	0.012714825
439.2707	7.3153893	0.012105781
440.8593	7.2980792	0.011527843
442.4480	7.2811094	0.010979339
444.0367	7.2644712	0.010458721
445.6255	7.2481543	0.0099644634
447.2145	7.2321496	0.0094951597
448.8034	7.2164489	0.0090494940
450.3924	7.2010439	0.0086262092
451.9815	7.1859265	0.0082241181
453.5706	7.1710888	0.0078420991
455.1598	7.1565229	0.0074790820
456.7491	7.1422221	0.0071340777
458.3384	7.1281787	0.0068061305
459.9278	7.1143870	0.0064943666
461.5172	7.1008396	0.0061979221
463.1067	7.0875309	0.0059160164
464.6962	7.0744540	0.0056478772
466.2858	7.0616035	0.0053927995
467.8755	7.0489732	0.0051501009
469.4652	7.0365584	0.0049191579
471.0550	7.0243534	0.0046993590
472.6448	7.0123526	0.0044901266
474.2347	7.0005517	0.0042909332
475.8246	6.9889452	0.0041012548
477.4145	6.9775292	0.0039206194
479.0046	6.9662982	0.0037485575
480.5946	6.9552487	0.0035846461
482.1847	6.9443761	0.0034284692
483.7749	6.9336758	0.0032796336
485.3651	6.9231445	0.0031377803
486.9553	6.9127781	0.0030025559
488.5456	6.9025726	0.0028736301
490.1359	6.8925245	0.0027506898
491.7263	6.8826302	0.0026334386
493.3167	6.8728863	0.0025215955
494.9072	6.8632897	0.0024148972
496.4977	6.8538370	0.0023130878
498.0882	6.8445248	0.0022159280
499.6788	6.8353502	0.0021231907
501.2693	6.8263104	0.0020346633
502.8600	6.8174021	0.0019501363
504.4507	6.8086230	0.0018694211
506.0414	6.7999702	0.0017923338
507.6321	6.7914407	0.0017186951
509.2229	6.7830324	0.0016483442
510.8137	6.7747428	0.0015811237
512.4045	6.7665691	0.0015168823
513.9954	6.7585089	0.0014554785
515.5863	6.7505601	0.0013967779
517.1772	6.7427205	0.0013406545
518.7681	6.7349880	0.0012869868
520.3591	6.7273602	0.0012356579
521.9501	6.7198350	0.0011865584
523.5411	6.7124106	0.0011395856
525.1322	6.7050849	0.0010946393
526.7232	6.6978561	0.0010516267
528.3143	6.6907223	0.0010104584
529.9054	6.6836815	0.00097104809
531.4966	6.6767320	0.00093331507
533.0877	6.6698722	0.00089718360
534.6789	6.6631004	0.00086258049
536.2701	6.6564149	0.00082943611
537.8613	6.6498140	0.00079768325
539.4525	6.6432963	0.00076725991
541.0438	6.6368600	0.00073810520
542.6350	6.6305039	0.00071016295
544.2263	6.6242264	0.00068337877
545.8175	6.6180263	0.00065770088
547.4088	6.6119018	0.00063307923
549.0002	6.6058518	0.00060946766
550.5915	6.5998751	0.00058682143
552.1828	6.5939702	0.00056509790
553.7741	6.5881358	0.00054425584
555.3654	6.5823710	0.00052425783
556.9568	6.5766742	0.00050506574
558.5481	6.5710444	0.00048664503
560.1395	6.5654804	0.00046896217
561.7309	6.5599812	0.00045198519
563.3222	6.5545456	0.00043568360
564.9136	6.5491726	0.00042002832
566.5050	6.5438609	0.00040499117
568.0963	6.5386098	0.00039054659
569.6877	6.5334182	0.00037666886
571.2790	6.5282851	0.00036333389
572.8705	6.5232093	0.00035051827
574.4618	6.5181903	0.00033820085
576.0532	6.5132268	0.00032636026
577.6445	6.5083182	0.00031497647
579.2359	6.5034634	0.00030403038
580.8273	6.4986615	0.00029350372
582.4186	6.4939119	0.00028337905
584.0099	6.4892137	0.00027364000
585.6013	6.4845658	0.00026427005
587.1926	6.4799678	0.00025525455
588.7839	6.4754187	0.00024657868
590.3752	6.4709178	0.00023822854
591.9665	6.4664645	0.00023019106
593.5577	6.4620578	0.00022245329
595.1490	6.4576971	0.00021500308
596.7402	6.4533817	0.00020782879
598.3315	6.4491108	0.00020091932
599.9227	6.4448840	0.00019426423
601.5139	6.4407004	0.00018785312
603.1051	6.4365595	0.00018167645
604.6962	6.4324606	0.00017572469
606.2874	6.4284030	0.00016998893
607.8785	6.4243863	0.00016446080
609.4696	6.4204097	0.00015913193
611.0607	6.4164727	0.00015399466
612.6518	6.4125746	0.00014904132
614.2428	6.4087150	0.00014426474
615.8338	6.4048933	0.00013965816
617.4248	6.4011090	0.00013521500
619.0158	6.3973614	0.00013092878
620.6067	6.3936502	0.00012679359
622.1976	6.3899747	0.00012280349
623.7885	6.3863344	0.00011895292
625.3793	6.3827290	0.00011523679
626.9702	6.3791579	0.00011164973
628.5610	6.3756204	0.00010818686
630.1518	6.3721164	0.00010484357
631.7425	6.3686453	0.00010161535
633.3332	6.3652066	9.8497865e-05
634.9238	6.3617999	9.5486870e-05
636.5145	6.3584247	9.2578474e-05
638.1050	6.3550807	8.9768849e-05
639.6956	6.3517673	8.7054241e-05
641.2861	6.3484842	8.4431213e-05
642.8766	6.3452310	8.1896381e-05
644.4670	6.3420073	7.9446495e-05
646.0574	6.3388127	7.7078437e-05
647.6478	6.3356467	7.4789141e-05
649.2381	6.3325091	7.2575805e-05
650.8284	6.3293995	7.0435730e-05
652.4186	6.3263175	6.8366129e-05
654.0088	6.3232627	6.6364519e-05
655.5990	6.3202346	6.4428390e-05
657.1891	6.3172332	6.2555507e-05
658.7791	6.3142580	6.0743545e-05
660.3691	6.3113086	5.8990329e-05
661.9591	6.3083847	5.7293716e-05
663.5490	6.3054860	5.5651800e-05
665.1388	6.3026123	5.4062594e-05
666.7287	6.2997629	5.2524192e-05
668.3184	6.2969380	5.1034900e-05
669.9081	6.2941369	4.9592952e-05
671.4977	6.2913595	4.8196691e-05
673.0874	6.2886054	4.6844526e-05
674.6769	6.2858744	4.5534926e-05
676.2664	6.2831662	4.4266416e-05
677.8558	6.2804805	4.3037614e-05
679.4452	6.2778170	4.1847117e-05
681.0345	6.2751754	4.0693574e-05
682.6238	6.2725555	3.9575791e-05
684.2129	6.2699572	3.8492546e-05
685.8021	6.2673798	3.7442601e-05
687.3912	6.2648234	3.6424888e-05
688.9802	6.2622877	3.5438289e-05
690.5691	6.2597724	3.4481753e-05
692.1580	6.2572772	3.3554299e-05
693.7468	6.2548020	3.2654925e-05
695.3356	6.2523464	3.1782693e-05
696.9243	6.2499103	3.0936726e-05
698.5129	6.2474934	3.0116124e-05
700.1015	6.2450955	2.9320050e-05
701.6899	6.2427164	2.8547717e-05
703.2784	6.2403559	2.7798321e-05
704.8667	6.2380137	2.7071131e-05
706.4550	6.2356896	2.6365399e-05
708.0432	6.2333835	2.5680446e-05
709.6313	6.2310951	2.5015577e-05
711.2193	6.2288242	2.4370159e-05
712.8073	6.2265706	2.3743545e-05
714.3953	6.2243340	2.3135128e-05
715.9831	6.2221145	2.2544361e-05
717.5708	6.2199117	2.1970642e-05
719.1585	6.2177254	2.1413427e-05
720.7461	6.2155555	2.0872207e-05
722.3336	6.2134017	2.0346473e-05
723.9210	6.2112639	1.9835719e-05
725.5084	6.2091420	1.9339489e-05
727.0956	6.2070357	1.8857324e-05
728.6829	6.2049448	1.8388769e-05
730.2700	6.2028693	1.7933411e-05
731.8570	6.2008089	1.7490840e-05
733.4439	6.1987635	1.7060656e-05
735.0308	6.1967328	1.6642463e-05
736.6175	6.1947168	1.6235902e-05
738.2042	6.1927152	1.5840615e-05
739.7908	6.1907280	1.5456255e-05
741.3773	6.1887550	1.5082476e-05
742.9637	6.1867960	1.4718975e-05
744.5500	6.1848508	1.4365419e-05
746.1362	6.1829193	1.4021514e-05
747.7224	6.1810015	1.3686970e-05
749.3084	6.1790970	1.3361503e-05
750.8943	6.1772058	1.3044838e-05
752.4802	6.1753278	1.2736713e-05
754.0659	6.1734628	1.2436870e-05
755.6516	6.1716106	1.2145054e-05
757.2372	6.1697712	1.1861042e-05
758.8226	6.1679444	1.1584595e-05
760.4080	6.1661301	1.1315488e-05
761.9932	6.1643281	1.1053505e-05
763.5784	6.1625383	1.0798435e-05
765.1634	6.1607606	1.0550076e-05
766.7484	6.1589948	1.0308231e-05
768.3333	6.1572409	1.0072709e-05
769.9180	6.1554987	9.8433281e-06
771.5026	6.1537681	9.6199150e-06
773.0872	6.1520490	9.4022906e-06
774.6716	6.1503413	9.1902877e-06
776.2559	6.1486448	8.9837446e-06
777.8401	6.1469594	8.7825046e-06
779.4243	6.1452850	8.5864158e-06
781.0083	6.1436216	8.3953372e-06
782.5921	6.1419690	8.2091201e-06
784.1759	6.1403271	8.0276322e-06
785.7596	6.1386957	7.8507287e-06
787.3431	6.1370748	7.6782909e-06
788.9265	6.1354644	7.5101930e-06
790.5099	6.1338641	7.3463030e-06
792.0931	6.1322741	7.1865131e-06
793.6761	6.1306942	7.0307087e-06
795.2591	6.1291242	6.8787742e-06
796.8419	6.1275641	6.7306021e-06
798.4247	6.1260137	6.5860885e-06
800.0073	6.1244731	6.4451409e-06
801.5898	6.1229420	6.3076484e-06
803.1722	6.1214205	6.1735244e-06
804.7544	6.1199083	6.0426768e-06
806.3365	6.1184055	5.9150120e-06
807.9185	6.1169119	5.7904473e-06
809.5004	6.1154274	5.6688947e-06
811.0822	6.1139520	5.5502728e-06
812.6638	6.1124856	5.4345095e-06
814.2453	6.1110280	5.3215208e-06
815.8267	6.1095792	5.2112322e-06
817.4079	6.1081392	5.1035748e-06
818.9890	6.1067077	4.9984782e-06
820.5700	6.1052848	4.8958711e-06
822.1508	6.1038705	4.7956966e-06
823.7315	6.1024644	4.6978750e-06
825.3121	6.1010668	4.6023561e-06
826.8926	6.0996773	4.5090734e-06
828.4728	6.0982960	4.4179739e-06
830.0530	6.0969227	4.3289946e-06
831.6331	6.0955575	4.2420804e-06
833.2130	6.0942002	4.1571825e-06
834.7928	6.0928507	4.0742435e-06
836.3725	6.0915090	3.9932126e-06
837.9520	6.0901751	3.9140454e-06
839.5312	6.0888488	3.8366938e-06
841.1104	6.0875301	3.7611062e-06
842.6896	6.0862189	3.6872376e-06
844.2685	6.0849151	3.6150485e-06
845.8473	6.0836187	3.5444916e-06
847.4259	6.0823296	3.4755297e-06
849.0044	6.0810477	3.4081181e-06
850.5827	6.0797730	3.3422217e-06
852.1609	6.0785054	3.2777981e-06
853.7390	6.0772448	3.2148144e-06
855.3169	6.0759913	3.1532304e-06
856.8946	6.0747446	3.0930149e-06
858.4723	6.0735048	3.0341300e-06
860.0497	6.0722718	2.9765462e-06
861.6271	6.0710455	2.9202277e-06
863.2042	6.0698259	2.8651465e-06
864.7812	6.0686130	2.8112720e-06
866.3580	6.0674066	2.7585712e-06
867.9348	6.0662066	2.7070154e-06
869.5112	6.0650132	2.6565826e-06
871.0877	6.0638260	2.6072361e-06
872.6639	6.0626453	2.5589587e-06
874.2399	6.0614708	2.5117182e-06
875.8158	6.0603026	2.4654925e-06
877.3916	6.0591405	2.4202541e-06
878.9672	6.0579845	2.3759821e-06
880.5426	6.0568346	2.3326530e-06
882.1179	6.0556907	2.2902417e-06
883.6930	6.0545527	2.2487287e-06
885.2679	6.0534207	2.2080927e-06
886.8427	6.0522945	2.1683101e-06
888.4173	6.0511741	2.1293632e-06
889.9917	6.0500595	2.0912321e-06
891.5660	6.0489506	2.0538953e-06
893.1400	6.0478474	2.0173385e-06
894.7141	6.0467497	1.9815367e-06
896.2878	6.0456576	1.9464788e-06
897.8614	6.0445710	1.9121430e-06
899.4348	6.0434900	1.8785168e-06
901.0081	6.0424142	1.8455773e-06
902.5811	6.0413439	1.8133148e-06
904.1541	6.0402790	1.7817095e-06
905.7268	6.0392193	1.7507502e-06
907.2993	6.0381649	1.7204182e-06
908.8718	6.0371156	1.6906990e-06
910.4440	6.0360716	1.6615824e-06
912.0160	6.0350326	1.6330508e-06
913.5878	6.0339987	1.6050944e-06
915.1595	6.0329699	1.5776968e-06
916.7310	6.0319460	1.5508469e-06
918.3023	6.0309270	1.5245307e-06
919.8734	6.0299130	1.4987393e-06
921.4443	6.0289039	1.4734594e-06
923.0151	6.0278995	1.4486779e-06
924.5857	6.0269000	1.4243851e-06
926.1562	6.0259052	1.4005702e-06
927.7264	6.0249151	1.3772225e-06
929.2964	6.0239297	1.3543315e-06
930.8662	6.0229489	1.3318871e-06
932.4358	6.0219728	1.3098795e-06
934.0053	6.0210012	1.2882990e-06
935.5746	6.0200340	1.2671348e-06
937.1436	6.0190714	1.2463804e-06
938.7126	6.0181132	1.2260244e-06
940.2812	6.0171595	1.2060604e-06
941.8498	6.0162101	1.1864775e-06
943.4181	6.0152651	1.1672698e-06
944.9862	6.0143244	1.1484267e-06
946.5541	6.0133880	1.1299428e-06
948.1219	6.0124557	1.1118079e-06
949.6894	6.0115278	1.0940168e-06
951.2567	6.0106039	1.0765599e-06
952.8238	6.0096842	1.0594322e-06
954.3908	6.0087686	1.0426245e-06
955.9575	6.0078572	1.0261321e-06
957.5240	6.0069497	1.0099473e-06
959.0903	6.0060463	9.9406342e-07
960.6565	6.0051468	9.7847325e-07
962.2225	6.0042513	9.6317249e-07
963.7882	6.0033597	9.4815406e-07
965.3537	6.0024720	9.3341204e-07
966.9190	6.0015881	9.1894063e-07
968.4841	6.0007081	9.0473504e-07
970.0490	5.9998319	8.9078799e-07
971.6137	5.9989595	8.7709581e-07
973.1782	5.9980907	8.6365151e-07
974.7425	5.9972257	8.5045163e-07
976.3065	5.9963644	8.3749029e-07
977.8704	5.9955067	8.2476257e-07
979.4340	5.9946527	8.1226444e-07
980.9975	5.9938022	7.9998965e-07
982.5606	5.9929554	7.8793515e-07
984.1236	5.9921121	7.7609568e-07
985.6864	5.9912722	7.6446687e-07
987.2490	5.9904359	7.5304443e-07
988.8113	5.9896031	7.4182488e-07
990.3735	5.9887736	7.3080274e-07
991.9354	5.9879476	7.1997538e-07
993.4971	5.9871250	7.0933887e-07
995.0586	5.9863057	6.9888806e-07
996.6198	5.9854898	6.8862052e-07
998.1809	5.9846772	6.7853196e-07
999.7417	5.9838678	6.6861880e-07
